//Exported ASCII-File
[Header]
FileName = J:\Raman-spectroscopy-microscopy\Data\2024-06-20-CD-cover-test\Petri-dish-test.wip
GraphName = Spectrum--003--Spec.Data 1
SizeX = 1
SizeY = 1
SizeGraph = 1600
PositionUnit = µm
PositionX = 2.3283064365387E-8
PositionY = 2.3283064365387E-8
PositionZ = 0
XAxisUnit = nm
DataUnit = CCD cts

[Data]
X-Axis,Spectrum--003--Spec.Data 1
nm,CCD cts
 5.307816803E+02, 2.885499878E+02
 5.308650650E+02, 2.890000000E+02
 5.309484482E+02, 2.884500122E+02
 5.310318301E+02, 2.918500061E+02
 5.311152107E+02, 2.927000122E+02
 5.311985898E+02, 2.938999939E+02
 5.312819676E+02, 2.972000122E+02
 5.313653440E+02, 3.024500122E+02
 5.314487190E+02, 3.067500000E+02
 5.315320927E+02, 3.168999939E+02
 5.316154650E+02, 3.318500061E+02
 5.316988358E+02, 3.795000000E+02
 5.317822054E+02, 5.512500000E+02
 5.318655735E+02, 1.227000000E+03
 5.319489403E+02, 2.992649902E+03
 5.320323056E+02, 5.961399902E+03
 5.321156696E+02, 1.143665039E+04
 5.321990322E+02, 1.935719922E+04
 5.322823935E+02, 2.579740039E+04
 5.323657533E+02, 2.985725000E+04
 5.324491118E+02, 2.385040039E+04
 5.325324688E+02, 1.441050000E+04
 5.326158245E+02, 8.862049805E+03
 5.326991788E+02, 4.755450195E+03
 5.327825318E+02, 2.066449951E+03
 5.328658833E+02, 8.219000244E+02
 5.329492334E+02, 4.181499939E+02
 5.330325822E+02, 3.272000122E+02
 5.331159295E+02, 3.077000122E+02
 5.331992755E+02, 3.002500000E+02
 5.332826200E+02, 2.985499878E+02
 5.333659632E+02, 2.950499878E+02
 5.334493050E+02, 2.928500061E+02
 5.335326454E+02, 2.917500000E+02
 5.336159844E+02, 2.888500061E+02
 5.336993220E+02, 2.886000061E+02
 5.337826582E+02, 2.872999878E+02
 5.338659930E+02, 2.867000122E+02
 5.339493264E+02, 2.875000000E+02
 5.340326584E+02, 2.865499878E+02
 5.341159890E+02, 2.865499878E+02
 5.341993182E+02, 2.862000122E+02
 5.342826460E+02, 2.865499878E+02
 5.343659725E+02, 2.861499939E+02
 5.344492975E+02, 2.881499939E+02
 5.345326211E+02, 2.855000000E+02
 5.346159433E+02, 2.870000000E+02
 5.346992641E+02, 2.860000000E+02
 5.347825834E+02, 2.887000122E+02
 5.348659014E+02, 2.872500000E+02
 5.349492180E+02, 2.881000061E+02
 5.350325332E+02, 2.893999939E+02
 5.351158469E+02, 2.908999939E+02
 5.351991593E+02, 2.932000122E+02
 5.352824702E+02, 2.977500000E+02
 5.353657797E+02, 2.993500061E+02
 5.354490879E+02, 3.052500000E+02
 5.355323946E+02, 3.113999939E+02
 5.356156999E+02, 3.244500122E+02
 5.356990037E+02, 3.401000061E+02
 5.357823062E+02, 3.705000000E+02
 5.358656073E+02, 4.163999939E+02
 5.359489069E+02, 4.871499939E+02
 5.360322051E+02, 6.118499756E+02
 5.361155019E+02, 7.997000122E+02
 5.361987973E+02, 1.097900024E+03
 5.362820913E+02, 1.533449951E+03
 5.363653838E+02, 2.148250000E+03
 5.364486749E+02, 2.884100098E+03
 5.365319647E+02, 3.548600098E+03
 5.366152529E+02, 4.130649902E+03
 5.366985398E+02, 4.478649902E+03
 5.367818252E+02, 4.736750000E+03
 5.368651093E+02, 4.932299805E+03
 5.369483918E+02, 5.016750000E+03
 5.370316730E+02, 4.921750000E+03
 5.371149528E+02, 4.863750000E+03
 5.371982311E+02, 4.794450195E+03
 5.372815080E+02, 4.710100098E+03
 5.373647834E+02, 4.692100098E+03
 5.374480574E+02, 4.605500000E+03
 5.375313300E+02, 4.529549805E+03
 5.376146012E+02, 4.495799805E+03
 5.376978710E+02, 4.451299805E+03
 5.377811393E+02, 4.362750000E+03
 5.378644061E+02, 4.338149902E+03
 5.379476716E+02, 4.461600098E+03
 5.380309356E+02, 4.636450195E+03
 5.381141982E+02, 4.808899902E+03
 5.381974593E+02, 5.022350098E+03
 5.382807190E+02, 5.295299805E+03
 5.383639773E+02, 5.488000000E+03
 5.384472341E+02, 5.630299805E+03
 5.385304895E+02, 5.773549805E+03
 5.386137434E+02, 5.961899902E+03
 5.386969960E+02, 6.129750000E+03
 5.387802470E+02, 5.974750000E+03
 5.388634967E+02, 5.660899902E+03
 5.389467448E+02, 5.262149902E+03
 5.390299916E+02, 4.671350098E+03
 5.391132369E+02, 4.130049805E+03
 5.391964808E+02, 3.519449951E+03
 5.392797232E+02, 2.943149902E+03
 5.393629641E+02, 2.517949951E+03
 5.394462037E+02, 2.255399902E+03
 5.395294417E+02, 2.070850098E+03
 5.396126784E+02, 1.919449951E+03
 5.396959135E+02, 1.853500000E+03
 5.397791473E+02, 1.780900024E+03
 5.398623795E+02, 1.694150024E+03
 5.399456104E+02, 1.663150024E+03
 5.400288397E+02, 1.657599976E+03
 5.401120677E+02, 1.627000000E+03
 5.401952941E+02, 1.592900024E+03
 5.402785192E+02, 1.586199951E+03
 5.403617427E+02, 1.543099976E+03
 5.404449648E+02, 1.482099976E+03
 5.405281855E+02, 1.438400024E+03
 5.406114047E+02, 1.371000000E+03
 5.406946224E+02, 1.289099976E+03
 5.407778387E+02, 1.233849976E+03
 5.408610535E+02, 1.200449951E+03
 5.409442669E+02, 1.181150024E+03
 5.410274788E+02, 1.151849976E+03
 5.411106892E+02, 1.128199951E+03
 5.411938982E+02, 1.118449951E+03
 5.412771057E+02, 1.134000000E+03
 5.413603118E+02, 1.146449951E+03
 5.414435164E+02, 1.165449951E+03
 5.415267195E+02, 1.182000000E+03
 5.416099212E+02, 1.197449951E+03
 5.416931214E+02, 1.209349976E+03
 5.417763201E+02, 1.217099976E+03
 5.418595173E+02, 1.251400024E+03
 5.419427131E+02, 1.237900024E+03
 5.420259075E+02, 1.230099976E+03
 5.421091003E+02, 1.200750000E+03
 5.421922917E+02, 1.152849976E+03
 5.422754816E+02, 1.141300049E+03
 5.423586701E+02, 1.133400024E+03
 5.424418570E+02, 1.099599976E+03
 5.425250425E+02, 1.091050049E+03
 5.426082265E+02, 1.099949951E+03
 5.426914091E+02, 1.102650024E+03
 5.427745902E+02, 1.097900024E+03
 5.428577698E+02, 1.116050049E+03
 5.429409479E+02, 1.160349976E+03
 5.430241245E+02, 1.207000000E+03
 5.431072997E+02, 1.247050049E+03
 5.431904734E+02, 1.313949951E+03
 5.432736456E+02, 1.376199951E+03
 5.433568163E+02, 1.463150024E+03
 5.434399855E+02, 1.531800049E+03
 5.435231533E+02, 1.589900024E+03
 5.436063195E+02, 1.668849976E+03
 5.436894843E+02, 1.734500000E+03
 5.437726476E+02, 1.798699951E+03
 5.438558095E+02, 1.893050049E+03
 5.439389698E+02, 2.043199951E+03
 5.440221287E+02, 2.115949951E+03
 5.441052860E+02, 2.093050049E+03
 5.441884419E+02, 2.000750000E+03
 5.442715963E+02, 1.869300049E+03
 5.443547492E+02, 1.759900024E+03
 5.444379006E+02, 1.648849976E+03
 5.445210505E+02, 1.523750000E+03
 5.446041989E+02, 1.420550049E+03
 5.446873459E+02, 1.371550049E+03
 5.447704913E+02, 1.310949951E+03
 5.448536352E+02, 1.265949951E+03
 5.449367777E+02, 1.225849976E+03
 5.450199187E+02, 1.215900024E+03
 5.451030581E+02, 1.192199951E+03
 5.451861961E+02, 1.143099976E+03
 5.452693325E+02, 1.114849976E+03
 5.453524675E+02, 1.073050049E+03
 5.454356010E+02, 1.026849976E+03
 5.455187329E+02, 9.814000244E+02
 5.456018634E+02, 9.269000244E+02
 5.456849924E+02, 8.931500244E+02
 5.457681199E+02, 8.630999756E+02
 5.458512458E+02, 8.542500000E+02
 5.459343703E+02, 8.440000000E+02
 5.460174932E+02, 8.400999756E+02
 5.461006147E+02, 8.291500244E+02
 5.461837346E+02, 8.226500244E+02
 5.462668531E+02, 8.200000000E+02
 5.463499700E+02, 8.230000000E+02
 5.464330854E+02, 8.262000122E+02
 5.465161993E+02, 8.175999756E+02
 5.465993118E+02, 8.234500122E+02
 5.466824227E+02, 8.185999756E+02
 5.467655320E+02, 8.357500000E+02
 5.468486399E+02, 8.427999878E+02
 5.469317463E+02, 8.477500000E+02
 5.470148511E+02, 8.617999878E+02
 5.470979545E+02, 8.689000244E+02
 5.471810563E+02, 8.847000122E+02
 5.472641566E+02, 8.990499878E+02
 5.473472554E+02, 9.212500000E+02
 5.474303527E+02, 9.490499878E+02
 5.475134485E+02, 9.722500000E+02
 5.475965427E+02, 1.006200012E+03
 5.476796354E+02, 1.038750000E+03
 5.477627266E+02, 1.115349976E+03
 5.478458163E+02, 1.205849976E+03
 5.479289045E+02, 1.310599976E+03
 5.480119911E+02, 1.351300049E+03
 5.480950762E+02, 1.338500000E+03
 5.481781598E+02, 1.301250000E+03
 5.482612419E+02, 1.262800049E+03
 5.483443225E+02, 1.221750000E+03
 5.484274015E+02, 1.229949951E+03
 5.485104790E+02, 1.219250000E+03
 5.485935550E+02, 1.184199951E+03
 5.486766294E+02, 1.156199951E+03
 5.487597023E+02, 1.147250000E+03
 5.488427737E+02, 1.127849976E+03
 5.489258436E+02, 1.099750000E+03
 5.490089119E+02, 1.089250000E+03
 5.490919787E+02, 1.068550049E+03
 5.491750440E+02, 1.049300049E+03
 5.492581077E+02, 1.031650024E+03
 5.493411699E+02, 1.003500000E+03
 5.494242306E+02, 9.862000122E+02
 5.495072897E+02, 9.755999756E+02
 5.495903473E+02, 9.689000244E+02
 5.496734034E+02, 9.758499756E+02
 5.497564579E+02, 9.811500244E+02
 5.498395109E+02, 9.804000244E+02
 5.499225623E+02, 1.001400024E+03
 5.500056123E+02, 1.049849976E+03
 5.500886606E+02, 1.145199951E+03
 5.501717075E+02, 1.402949951E+03
 5.502547528E+02, 2.135199951E+03
 5.503377965E+02, 3.789149902E+03
 5.504208387E+02, 5.510000000E+03
 5.505038794E+02, 5.614000000E+03
 5.505869185E+02, 4.155000000E+03
 5.506699561E+02, 2.499649902E+03
 5.507529921E+02, 1.663400024E+03
 5.508360266E+02, 1.319750000E+03
 5.509190595E+02, 1.124300049E+03
 5.510020909E+02, 9.824500122E+02
 5.510851207E+02, 8.962500000E+02
 5.511681490E+02, 8.572999878E+02
 5.512511758E+02, 8.140999756E+02
 5.513342010E+02, 7.836500244E+02
 5.514172246E+02, 7.710499878E+02
 5.515002467E+02, 7.580000000E+02
 5.515832672E+02, 7.608499756E+02
 5.516662862E+02, 7.522999878E+02
 5.517493036E+02, 7.477500000E+02
 5.518323195E+02, 7.397000122E+02
 5.519153338E+02, 7.298499756E+02
 5.519983466E+02, 7.344500122E+02
 5.520813578E+02, 7.367999878E+02
 5.521643674E+02, 7.345999756E+02
 5.522473755E+02, 7.295000000E+02
 5.523303821E+02, 7.278499756E+02
 5.524133870E+02, 7.364000244E+02
 5.524963904E+02, 7.531500244E+02
 5.525793923E+02, 7.641500244E+02
 5.526623926E+02, 8.027000122E+02
 5.527453913E+02, 8.622500000E+02
 5.528283885E+02, 9.282000122E+02
 5.529113840E+02, 9.807500000E+02
 5.529943781E+02, 9.814500122E+02
 5.530773705E+02, 9.266500244E+02
 5.531603614E+02, 8.445999756E+02
 5.532433508E+02, 8.106500244E+02
 5.533263385E+02, 8.061500244E+02
 5.534093247E+02, 8.195000000E+02
 5.534923093E+02, 8.394000244E+02
 5.535752924E+02, 8.567999878E+02
 5.536582739E+02, 9.155000000E+02
 5.537412538E+02, 1.004450012E+03
 5.538242321E+02, 1.155699951E+03
 5.539072089E+02, 1.391800049E+03
 5.539901841E+02, 1.672650024E+03
 5.540731577E+02, 1.884449951E+03
 5.541561298E+02, 2.041650024E+03
 5.542391002E+02, 2.145199951E+03
 5.543220691E+02, 2.261850098E+03
 5.544050364E+02, 2.444449951E+03
 5.544880022E+02, 2.693449951E+03
 5.545709663E+02, 2.937750000E+03
 5.546539289E+02, 3.033300049E+03
 5.547368899E+02, 3.052399902E+03
 5.548198493E+02, 2.978000000E+03
 5.549028071E+02, 2.858800049E+03
 5.549857634E+02, 2.772300049E+03
 5.550687181E+02, 2.609949951E+03
 5.551516711E+02, 2.453850098E+03
 5.552346226E+02, 2.429649902E+03
 5.553175726E+02, 2.587449951E+03
 5.554005209E+02, 2.909800049E+03
 5.554834676E+02, 3.393949951E+03
 5.555664128E+02, 4.023000000E+03
 5.556493563E+02, 4.587149902E+03
 5.557322983E+02, 5.077200195E+03
 5.558152387E+02, 5.219850098E+03
 5.558981775E+02, 4.852250000E+03
 5.559811147E+02, 4.222549805E+03
 5.560640503E+02, 3.593800049E+03
 5.561469843E+02, 3.015850098E+03
 5.562299168E+02, 2.601399902E+03
 5.563128476E+02, 2.303199951E+03
 5.563957769E+02, 2.020449951E+03
 5.564787045E+02, 1.765150024E+03
 5.565616305E+02, 1.544199951E+03
 5.566445550E+02, 1.389300049E+03
 5.567274778E+02, 1.351099976E+03
 5.568103991E+02, 1.413349976E+03
 5.568933188E+02, 1.515449951E+03
 5.569762368E+02, 1.682500000E+03
 5.570591533E+02, 1.920949951E+03
 5.571420681E+02, 2.142949951E+03
 5.572249814E+02, 2.209850098E+03
 5.573078930E+02, 2.144500000E+03
 5.573908031E+02, 1.941900024E+03
 5.574737115E+02, 1.761699951E+03
 5.575566184E+02, 1.637550049E+03
 5.576395236E+02, 1.561099976E+03
 5.577224272E+02, 1.527400024E+03
 5.578053292E+02, 1.526849976E+03
 5.578882296E+02, 1.528849976E+03
 5.579711284E+02, 1.511550049E+03
 5.580540256E+02, 1.499800049E+03
 5.581369212E+02, 1.509550049E+03
 5.582198152E+02, 1.489599976E+03
 5.583027076E+02, 1.444250000E+03
 5.583855983E+02, 1.420550049E+03
 5.584684874E+02, 1.425449951E+03
 5.585513750E+02, 1.423349976E+03
 5.586342609E+02, 1.436300049E+03
 5.587171452E+02, 1.480599976E+03
 5.588000278E+02, 1.507550049E+03
 5.588829089E+02, 1.580300049E+03
 5.589657884E+02, 1.691900024E+03
 5.590486662E+02, 1.858800049E+03
 5.591315424E+02, 2.016699951E+03
 5.592144170E+02, 2.097399902E+03
 5.592972899E+02, 2.025099976E+03
 5.593801613E+02, 1.811000000E+03
 5.594630310E+02, 1.618349976E+03
 5.595458991E+02, 1.469000000E+03
 5.596287656E+02, 1.360349976E+03
 5.597116305E+02, 1.297000000E+03
 5.597944937E+02, 1.237650024E+03
 5.598773553E+02, 1.215599976E+03
 5.599602153E+02, 1.215849976E+03
 5.600430736E+02, 1.201900024E+03
 5.601259304E+02, 1.221900024E+03
 5.602087855E+02, 1.273650024E+03
 5.602916389E+02, 1.301699951E+03
 5.603744908E+02, 1.316050049E+03
 5.604573410E+02, 1.312650024E+03
 5.605401896E+02, 1.325349976E+03
 5.606230365E+02, 1.343050049E+03
 5.607058818E+02, 1.360650024E+03
 5.607887255E+02, 1.397250000E+03
 5.608715676E+02, 1.481650024E+03
 5.609544080E+02, 1.559750000E+03
 5.610372468E+02, 1.612099976E+03
 5.611200839E+02, 1.650000000E+03
 5.612029194E+02, 1.661550049E+03
 5.612857533E+02, 1.683949951E+03
 5.613685855E+02, 1.793949951E+03
 5.614514161E+02, 2.003150024E+03
 5.615342451E+02, 2.328350098E+03
 5.616170724E+02, 2.778600098E+03
 5.616998981E+02, 3.542600098E+03
 5.617827221E+02, 4.720799805E+03
 5.618655445E+02, 6.096450195E+03
 5.619483652E+02, 8.438400391E+03
 5.620311843E+02, 1.522095020E+04
 5.621140018E+02, 2.903200000E+04
 5.621968176E+02, 4.121889844E+04
 5.622796318E+02, 4.081889844E+04
 5.623624443E+02, 2.786294922E+04
 5.624452552E+02, 1.374734961E+04
 5.625280644E+02, 6.410899902E+03
 5.626108720E+02, 3.734600098E+03
 5.626936779E+02, 2.872300049E+03
 5.627764822E+02, 2.947449951E+03
 5.628592848E+02, 3.823500000E+03
 5.629420858E+02, 5.796500000E+03
 5.630248851E+02, 8.779950195E+03
 5.631076827E+02, 1.168565039E+04
 5.631904788E+02, 1.276184961E+04
 5.632732731E+02, 1.152490039E+04
 5.633560658E+02, 8.574799805E+03
 5.634388569E+02, 5.910899902E+03
 5.635216463E+02, 4.294549805E+03
 5.636044340E+02, 3.373649902E+03
 5.636872201E+02, 2.894750000E+03
 5.637700045E+02, 2.630199951E+03
 5.638527872E+02, 2.495899902E+03
 5.639355683E+02, 2.445149902E+03
 5.640183478E+02, 2.474699951E+03
 5.641011255E+02, 2.518699951E+03
 5.641839016E+02, 2.593300049E+03
 5.642666761E+02, 2.669550049E+03
 5.643494489E+02, 2.753199951E+03
 5.644322200E+02, 2.808649902E+03
 5.645149894E+02, 2.805699951E+03
 5.645977572E+02, 2.738250000E+03
 5.646805233E+02, 2.656250000E+03
 5.647632878E+02, 2.587500000E+03
 5.648460506E+02, 2.496500000E+03
 5.649288117E+02, 2.487350098E+03
 5.650115711E+02, 2.473600098E+03
 5.650943289E+02, 2.480399902E+03
 5.651770850E+02, 2.508100098E+03
 5.652598394E+02, 2.506000000E+03
 5.653425922E+02, 2.467850098E+03
 5.654253433E+02, 2.286300049E+03
 5.655080927E+02, 2.049800049E+03
 5.655908404E+02, 1.841650024E+03
 5.656735865E+02, 1.693400024E+03
 5.657563308E+02, 1.591300049E+03
 5.658390735E+02, 1.494650024E+03
 5.659218146E+02, 1.391199951E+03
 5.660045539E+02, 1.303000000E+03
 5.660872916E+02, 1.227599976E+03
 5.661700276E+02, 1.179949951E+03
 5.662527619E+02, 1.163300049E+03
 5.663354945E+02, 1.169349976E+03
 5.664182255E+02, 1.218900024E+03
 5.665009547E+02, 1.272099976E+03
 5.665836823E+02, 1.381949951E+03
 5.666664082E+02, 1.565849976E+03
 5.667491324E+02, 1.880750000E+03
 5.668318549E+02, 2.351199951E+03
 5.669145758E+02, 3.158149902E+03
 5.669972949E+02, 4.325850098E+03
 5.670800124E+02, 5.385149902E+03
 5.671627282E+02, 5.467350098E+03
 5.672454423E+02, 4.858700195E+03
 5.673281546E+02, 3.966199951E+03
 5.674108654E+02, 3.294250000E+03
 5.674935744E+02, 3.005850098E+03
 5.675762817E+02, 3.008000000E+03
 5.676589873E+02, 3.307000000E+03
 5.677416913E+02, 3.995000000E+03
 5.678243935E+02, 5.161250000E+03
 5.679070940E+02, 6.456000000E+03
 5.679897929E+02, 7.136049805E+03
 5.680724900E+02, 7.102700195E+03
 5.681551855E+02, 6.933500000E+03
 5.682378793E+02, 7.028350098E+03
 5.683205713E+02, 7.389700195E+03
 5.684032617E+02, 7.819000000E+03
 5.684859503E+02, 8.050100098E+03
 5.685686373E+02, 8.044950195E+03
 5.686513226E+02, 7.692600098E+03
 5.687340061E+02, 6.943149902E+03
 5.688166880E+02, 6.001750000E+03
 5.688993681E+02, 5.018899902E+03
 5.689820466E+02, 4.141500000E+03
 5.690647233E+02, 3.516300049E+03
 5.691473983E+02, 3.107250000E+03
 5.692300717E+02, 2.875250000E+03
 5.693127433E+02, 2.676649902E+03
 5.693954132E+02, 2.518800049E+03
 5.694780814E+02, 2.371550049E+03
 5.695607479E+02, 2.169949951E+03
 5.696434127E+02, 2.000349976E+03
 5.697260758E+02, 1.907250000E+03
 5.698087371E+02, 1.862800049E+03
 5.698913968E+02, 1.820250000E+03
 5.699740547E+02, 1.805650024E+03
 5.700567109E+02, 1.771150024E+03
 5.701393654E+02, 1.743050049E+03
 5.702220182E+02, 1.736949951E+03
 5.703046693E+02, 1.707500000E+03
 5.703873187E+02, 1.664849976E+03
 5.704699663E+02, 1.629550049E+03
 5.705526123E+02, 1.621650024E+03
 5.706352565E+02, 1.623150024E+03
 5.707178990E+02, 1.608900024E+03
 5.708005397E+02, 1.572849976E+03
 5.708831788E+02, 1.571400024E+03
 5.709658161E+02, 1.586699951E+03
 5.710484517E+02, 1.609849976E+03
 5.711310856E+02, 1.600050049E+03
 5.712137177E+02, 1.599550049E+03
 5.712963482E+02, 1.653500000E+03
 5.713789769E+02, 1.734400024E+03
 5.714616039E+02, 1.799599976E+03
 5.715442291E+02, 1.860250000E+03
 5.716268526E+02, 1.938949951E+03
 5.717094744E+02, 2.035099976E+03
 5.717920945E+02, 2.088100098E+03
 5.718747129E+02, 2.153300049E+03
 5.719573295E+02, 2.231149902E+03
 5.720399443E+02, 2.279300049E+03
 5.721225575E+02, 2.296899902E+03
 5.722051689E+02, 2.363149902E+03
 5.722877786E+02, 2.477500000E+03
 5.723703865E+02, 2.602449951E+03
 5.724529928E+02, 2.769850098E+03
 5.725355972E+02, 2.893600098E+03
 5.726182000E+02, 2.999699951E+03
 5.727008010E+02, 3.094550049E+03
 5.727834003E+02, 3.062500000E+03
 5.728659978E+02, 3.012399902E+03
 5.729485936E+02, 2.898600098E+03
 5.730311876E+02, 2.661750000E+03
 5.731137800E+02, 2.442300049E+03
 5.731963705E+02, 2.237050049E+03
 5.732789594E+02, 2.091949951E+03
 5.733615465E+02, 2.020449951E+03
 5.734441318E+02, 1.962800049E+03
 5.735267154E+02, 1.890400024E+03
 5.736092973E+02, 1.844650024E+03
 5.736918774E+02, 1.856849976E+03
 5.737744557E+02, 1.849800049E+03
 5.738570324E+02, 1.836599976E+03
 5.739396072E+02, 1.853550049E+03
 5.740221804E+02, 1.864000000E+03
 5.741047517E+02, 1.832250000E+03
 5.741873214E+02, 1.797699951E+03
 5.742698892E+02, 1.719349976E+03
 5.743524554E+02, 1.621250000E+03
 5.744350197E+02, 1.472199951E+03
 5.745175824E+02, 1.324199951E+03
 5.746001432E+02, 1.216099976E+03
 5.746827023E+02, 1.130300049E+03
 5.747652597E+02, 1.080699951E+03
 5.748478153E+02, 1.026300049E+03
 5.749303692E+02, 1.015099976E+03
 5.750129213E+02, 1.030449951E+03
 5.750954716E+02, 1.042550049E+03
 5.751780202E+02, 1.058650024E+03
 5.752605670E+02, 1.048000000E+03
 5.753431120E+02, 1.004250000E+03
 5.754256553E+02, 9.836500244E+02
 5.755081969E+02, 9.706500244E+02
 5.755907367E+02, 9.514500122E+02
 5.756732747E+02, 9.563499756E+02
 5.757558109E+02, 9.557500000E+02
 5.758383454E+02, 9.624000244E+02
 5.759208781E+02, 9.975000000E+02
 5.760034091E+02, 1.072500000E+03
 5.760859383E+02, 1.191949951E+03
 5.761684657E+02, 1.400150024E+03
 5.762509914E+02, 1.699050049E+03
 5.763335152E+02, 2.073699951E+03
 5.764160374E+02, 2.402250000E+03
 5.764985577E+02, 2.729850098E+03
 5.765810763E+02, 3.080250000E+03
 5.766635931E+02, 3.368350098E+03
 5.767461081E+02, 3.545600098E+03
 5.768286214E+02, 3.466250000E+03
 5.769111329E+02, 3.121149902E+03
 5.769936426E+02, 2.556750000E+03
 5.770761506E+02, 1.984949951E+03
 5.771586567E+02, 1.542800049E+03
 5.772411611E+02, 1.305400024E+03
 5.773236637E+02, 1.143199951E+03
 5.774061646E+02, 1.060349976E+03
 5.774886636E+02, 1.020500000E+03
 5.775711609E+02, 9.949500122E+02
 5.776536564E+02, 9.580999756E+02
 5.777361502E+02, 9.364000244E+02
 5.778186421E+02, 9.293499756E+02
 5.779011323E+02, 9.509000244E+02
 5.779836206E+02, 9.625000000E+02
 5.780661072E+02, 1.000150024E+03
 5.781485920E+02, 1.061849976E+03
 5.782310751E+02, 1.082349976E+03
 5.783135563E+02, 1.061750000E+03
 5.783960358E+02, 1.002549988E+03
 5.784785134E+02, 9.417999878E+02
 5.785609893E+02, 9.104000244E+02
 5.786434634E+02, 8.990000000E+02
 5.787259357E+02, 8.944000244E+02
 5.788084062E+02, 8.970000000E+02
 5.788908749E+02, 8.959000244E+02
 5.789733419E+02, 8.942500000E+02
 5.790558070E+02, 9.100499878E+02
 5.791382704E+02, 8.961500244E+02
 5.792207319E+02, 9.048499756E+02
 5.793031917E+02, 9.100999756E+02
 5.793856497E+02, 9.098499756E+02
 5.794681058E+02, 9.030499878E+02
 5.795505602E+02, 9.199500122E+02
 5.796330128E+02, 9.206500244E+02
 5.797154636E+02, 9.287500000E+02
 5.797979126E+02, 9.317500000E+02
 5.798803597E+02, 9.298499756E+02
 5.799628051E+02, 9.427999878E+02
 5.800452487E+02, 9.527000122E+02
 5.801276905E+02, 9.519000244E+02
 5.802101305E+02, 9.550000000E+02
 5.802925687E+02, 9.830499878E+02
 5.803750051E+02, 1.015700012E+03
 5.804574396E+02, 1.037300049E+03
 5.805398724E+02, 1.091599976E+03
 5.806223034E+02, 1.157599976E+03
 5.807047325E+02, 1.252800049E+03
 5.807871599E+02, 1.378349976E+03
 5.808695854E+02, 1.582750000E+03
 5.809520092E+02, 1.932449951E+03
 5.810344311E+02, 2.662399902E+03
 5.811168512E+02, 3.664250000E+03
 5.811992695E+02, 4.407450195E+03
 5.812816860E+02, 4.596250000E+03
 5.813641007E+02, 4.154850098E+03
 5.814465136E+02, 3.670149902E+03
 5.815289246E+02, 3.764949951E+03
 5.816113339E+02, 4.826899902E+03
 5.816937413E+02, 6.725100098E+03
 5.817761469E+02, 8.975049805E+03
 5.818585508E+02, 1.070804980E+04
 5.819409527E+02, 1.059575000E+04
 5.820233529E+02, 8.568000000E+03
 5.821057513E+02, 6.103850098E+03
 5.821881478E+02, 4.029500000E+03
 5.822705425E+02, 2.747850098E+03
 5.823529354E+02, 2.070750000E+03
 5.824353265E+02, 1.693250000E+03
 5.825177157E+02, 1.461349976E+03
 5.826001031E+02, 1.363349976E+03
 5.826824888E+02, 1.316050049E+03
 5.827648725E+02, 1.249500000E+03
 5.828472545E+02, 1.165699951E+03
 5.829296346E+02, 1.092300049E+03
 5.830120129E+02, 1.039550049E+03
 5.830943894E+02, 1.010900024E+03
 5.831767641E+02, 9.955999756E+02
 5.832591369E+02, 9.797000122E+02
 5.833415079E+02, 9.782500000E+02
 5.834238771E+02, 9.544000244E+02
 5.835062444E+02, 9.382000122E+02
 5.835886099E+02, 9.404500122E+02
 5.836709736E+02, 9.422999878E+02
 5.837533354E+02, 9.159000244E+02
 5.838356954E+02, 9.042500000E+02
 5.839180536E+02, 9.083499756E+02
 5.840004099E+02, 9.219000244E+02
 5.840827645E+02, 9.062999878E+02
 5.841651171E+02, 9.109000244E+02
 5.842474680E+02, 9.253499756E+02
 5.843298170E+02, 9.375499878E+02
 5.844121641E+02, 9.510499878E+02
 5.844945094E+02, 9.577000122E+02
 5.845768529E+02, 9.629000244E+02
 5.846591946E+02, 9.544000244E+02
 5.847415344E+02, 9.375999756E+02
 5.848238723E+02, 9.245499878E+02
 5.849062084E+02, 9.157500000E+02
 5.849885427E+02, 9.106500244E+02
 5.850708751E+02, 9.052000122E+02
 5.851532057E+02, 8.995499878E+02
 5.852355345E+02, 8.689500122E+02
 5.853178614E+02, 8.448499756E+02
 5.854001864E+02, 8.392000122E+02
 5.854825096E+02, 8.515000000E+02
 5.855648310E+02, 8.580000000E+02
 5.856471505E+02, 8.495999756E+02
 5.857294681E+02, 8.410999756E+02
 5.858117839E+02, 8.308499756E+02
 5.858940979E+02, 8.232000122E+02
 5.859764100E+02, 8.272000122E+02
 5.860587203E+02, 8.342500000E+02
 5.861410287E+02, 8.532000122E+02
 5.862233352E+02, 8.610999756E+02
 5.863056399E+02, 8.556500244E+02
 5.863879427E+02, 8.492999878E+02
 5.864702437E+02, 8.528499756E+02
 5.865525429E+02, 8.417999878E+02
 5.866348401E+02, 8.391500244E+02
 5.867171355E+02, 8.504000244E+02
 5.867994291E+02, 8.526500244E+02
 5.868817208E+02, 8.454500122E+02
 5.869640106E+02, 8.445499878E+02
 5.870462986E+02, 8.432999878E+02
 5.871285847E+02, 8.324000244E+02
 5.872108690E+02, 8.386500244E+02
 5.872931513E+02, 8.426500244E+02
 5.873754319E+02, 8.531500244E+02
 5.874577105E+02, 8.450000000E+02
 5.875399873E+02, 8.447000122E+02
 5.876222622E+02, 8.425000000E+02
 5.877045353E+02, 8.390499878E+02
 5.877868065E+02, 8.350999756E+02
 5.878690758E+02, 8.362999878E+02
 5.879513433E+02, 8.535999756E+02
 5.880336089E+02, 8.434000244E+02
 5.881158726E+02, 8.446500244E+02
 5.881981345E+02, 8.560499878E+02
 5.882803944E+02, 8.459000244E+02
 5.883626526E+02, 8.475000000E+02
 5.884449088E+02, 8.545499878E+02
 5.885271632E+02, 8.503499756E+02
 5.886094156E+02, 8.640499878E+02
 5.886916663E+02, 8.724500122E+02
 5.887739150E+02, 8.803499756E+02
 5.888561619E+02, 8.954500122E+02
 5.889384068E+02, 9.092000122E+02
 5.890206499E+02, 8.981500244E+02
 5.891028912E+02, 9.051500244E+02
 5.891851305E+02, 8.871500244E+02
 5.892673680E+02, 8.947000122E+02
 5.893496036E+02, 8.947999878E+02
 5.894318373E+02, 8.935999756E+02
 5.895140691E+02, 8.794500122E+02
 5.895962991E+02, 8.657000122E+02
 5.896785271E+02, 8.457500000E+02
 5.897607533E+02, 8.430999756E+02
 5.898429776E+02, 8.375999756E+02
 5.899252000E+02, 8.397500000E+02
 5.900074205E+02, 8.404000244E+02
 5.900896392E+02, 8.459000244E+02
 5.901718559E+02, 8.505000000E+02
 5.902540708E+02, 8.484000244E+02
 5.903362838E+02, 8.455499878E+02
 5.904184948E+02, 8.519500122E+02
 5.905007040E+02, 8.414500122E+02
 5.905829113E+02, 8.262000122E+02
 5.906651167E+02, 8.314000244E+02
 5.907473203E+02, 8.431500244E+02
 5.908295219E+02, 8.402500000E+02
 5.909117216E+02, 8.309000244E+02
 5.909939194E+02, 8.356500244E+02
 5.910761154E+02, 8.421500244E+02
 5.911583094E+02, 8.530999756E+02
 5.912405016E+02, 8.572000122E+02
 5.913226918E+02, 8.535499878E+02
 5.914048802E+02, 8.565000000E+02
 5.914870666E+02, 8.561500244E+02
 5.915692512E+02, 8.532999878E+02
 5.916514338E+02, 8.514500122E+02
 5.917336146E+02, 8.412500000E+02
 5.918157934E+02, 8.507500000E+02
 5.918979704E+02, 8.423499756E+02
 5.919801454E+02, 8.396500244E+02
 5.920623186E+02, 8.519500122E+02
 5.921444898E+02, 8.636500244E+02
 5.922266592E+02, 8.602500000E+02
 5.923088266E+02, 8.585999756E+02
 5.923909921E+02, 8.752999878E+02
 5.924731557E+02, 8.842000122E+02
 5.925553174E+02, 8.922999878E+02
 5.926374772E+02, 8.967999878E+02
 5.927196351E+02, 9.101500244E+02
 5.928017911E+02, 9.105499878E+02
 5.928839451E+02, 9.004500122E+02
 5.929660973E+02, 9.055999756E+02
 5.930482475E+02, 9.239500122E+02
 5.931303959E+02, 9.515000000E+02
 5.932125423E+02, 9.470999756E+02
 5.932946868E+02, 9.315499878E+02
 5.933768294E+02, 9.128499756E+02
 5.934589701E+02, 9.149500122E+02
 5.935411088E+02, 9.212000122E+02
 5.936232457E+02, 9.180499878E+02
 5.937053806E+02, 9.142999878E+02
 5.937875136E+02, 9.105000000E+02
 5.938696447E+02, 9.163499756E+02
 5.939517738E+02, 9.248499756E+02
 5.940339011E+02, 9.387000122E+02
 5.941160264E+02, 9.445499878E+02
 5.941981498E+02, 9.379000244E+02
 5.942802713E+02, 9.247500000E+02
 5.943623908E+02, 9.229000244E+02
 5.944445085E+02, 9.282500000E+02
 5.945266242E+02, 9.229000244E+02
 5.946087379E+02, 9.187000122E+02
 5.946908498E+02, 8.979000244E+02
 5.947729597E+02, 8.922999878E+02
 5.948550677E+02, 8.904500122E+02
 5.949371738E+02, 8.984500122E+02
 5.950192779E+02, 9.035999756E+02
 5.951013801E+02, 9.075999756E+02
 5.951834804E+02, 9.076500244E+02
 5.952655788E+02, 9.018499756E+02
 5.953476752E+02, 8.965499878E+02
 5.954297697E+02, 8.965499878E+02
 5.955118622E+02, 8.963499756E+02
 5.955939528E+02, 9.012000122E+02
 5.956760415E+02, 9.026500244E+02
 5.957581283E+02, 9.009000244E+02
 5.958402131E+02, 9.015499878E+02
 5.959222960E+02, 8.987000122E+02
 5.960043769E+02, 8.924500122E+02
 5.960864559E+02, 8.939500122E+02
 5.961685330E+02, 9.029000244E+02
 5.962506081E+02, 8.965999756E+02
 5.963326813E+02, 9.101500244E+02
 5.964147525E+02, 9.107000122E+02
 5.964968218E+02, 9.182999878E+02
 5.965788892E+02, 9.192500000E+02
 5.966609546E+02, 9.224000244E+02
 5.967430180E+02, 9.144000244E+02
 5.968250796E+02, 9.158499756E+02
 5.969071391E+02, 9.069500122E+02
 5.969891968E+02, 9.100499878E+02
 5.970712525E+02, 9.041500244E+02
 5.971533062E+02, 9.094000244E+02
 5.972353580E+02, 9.137000122E+02
 5.973174078E+02, 9.179500122E+02
 5.973994557E+02, 9.230000000E+02
 5.974815017E+02, 9.277500000E+02
 5.975635457E+02, 9.184000244E+02
 5.976455877E+02, 9.125999756E+02
 5.977276278E+02, 9.202000122E+02
 5.978096659E+02, 9.393499756E+02
 5.978917021E+02, 9.485000000E+02
 5.979737363E+02, 9.423499756E+02
 5.980557686E+02, 9.352999878E+02
 5.981377989E+02, 9.350999756E+02
 5.982198273E+02, 9.336500244E+02
 5.983018537E+02, 9.282000122E+02
 5.983838781E+02, 9.244500122E+02
 5.984659006E+02, 9.337999878E+02
 5.985479212E+02, 9.372500000E+02
 5.986299397E+02, 9.417999878E+02
 5.987119563E+02, 9.464500122E+02
 5.987939710E+02, 9.348499756E+02
 5.988759837E+02, 9.315999756E+02
 5.989579944E+02, 9.432500000E+02
 5.990400032E+02, 9.590000000E+02
 5.991220099E+02, 9.627000122E+02
 5.992040148E+02, 9.517999878E+02
 5.992860176E+02, 9.464000244E+02
 5.993680185E+02, 9.510999756E+02
 5.994500175E+02, 9.492999878E+02
 5.995320144E+02, 9.567000122E+02
 5.996140094E+02, 9.578499756E+02
 5.996960025E+02, 9.520499878E+02
 5.997779935E+02, 9.585499878E+02
 5.998599826E+02, 9.713499756E+02
 5.999419697E+02, 9.815000000E+02
 6.000239548E+02, 9.772500000E+02
 6.001059380E+02, 9.688499756E+02
 6.001879192E+02, 9.724500122E+02
 6.002698984E+02, 9.662000122E+02
 6.003518757E+02, 9.597500000E+02
 6.004338510E+02, 9.637500000E+02
 6.005158243E+02, 9.851500244E+02
 6.005977956E+02, 9.749000244E+02
 6.006797649E+02, 9.697500000E+02
 6.007617323E+02, 9.684500122E+02
 6.008436977E+02, 9.724000244E+02
 6.009256611E+02, 9.864500122E+02
 6.010076225E+02, 9.894500122E+02
 6.010895819E+02, 9.867999878E+02
 6.011715394E+02, 9.897000122E+02
 6.012534949E+02, 9.825999756E+02
 6.013354484E+02, 9.857000122E+02
 6.014173999E+02, 9.848499756E+02
 6.014993494E+02, 9.868499756E+02
 6.015812970E+02, 9.833499756E+02
 6.016632425E+02, 9.860999756E+02
 6.017451861E+02, 9.904500122E+02
 6.018271277E+02, 9.944000244E+02
 6.019090673E+02, 9.992999878E+02
 6.019910049E+02, 1.020250000E+03
 6.020729405E+02, 1.015299988E+03
 6.021548741E+02, 1.019549988E+03
 6.022368058E+02, 1.013049988E+03
 6.023187354E+02, 1.011650024E+03
 6.024006631E+02, 1.017099976E+03
 6.024825887E+02, 1.030949951E+03
 6.025645124E+02, 1.026250000E+03
 6.026464341E+02, 1.011650024E+03
 6.027283538E+02, 1.015250000E+03
 6.028102714E+02, 1.040050049E+03
 6.028921871E+02, 1.048449951E+03
 6.029741008E+02, 1.028900024E+03
 6.030560125E+02, 1.019849976E+03
 6.031379222E+02, 1.027300049E+03
 6.032198299E+02, 1.041300049E+03
 6.033017356E+02, 1.032949951E+03
 6.033836393E+02, 1.005450012E+03
 6.034655410E+02, 9.943499756E+02
 6.035474407E+02, 1.014200012E+03
 6.036293384E+02, 1.019500000E+03
 6.037112341E+02, 1.036250000E+03
 6.037931277E+02, 1.033949951E+03
 6.038750194E+02, 1.010799988E+03
 6.039569091E+02, 1.004950012E+03
 6.040387968E+02, 1.013700012E+03
 6.041206824E+02, 1.013799988E+03
 6.042025661E+02, 1.029699951E+03
 6.042844477E+02, 1.031550049E+03
 6.043663273E+02, 1.017299988E+03
 6.044482050E+02, 1.005549988E+03
 6.045300806E+02, 1.005650024E+03
 6.046119542E+02, 1.020650024E+03
 6.046938258E+02, 1.042949951E+03
 6.047756954E+02, 1.046699951E+03
 6.048575629E+02, 1.050750000E+03
 6.049394285E+02, 1.033949951E+03
 6.050212920E+02, 1.031000000E+03
 6.051031535E+02, 1.024599976E+03
 6.051850130E+02, 1.039949951E+03
 6.052668705E+02, 1.053750000E+03
 6.053487260E+02, 1.050650024E+03
 6.054305795E+02, 1.041750000E+03
 6.055124309E+02, 1.034949951E+03
 6.055942803E+02, 1.034699951E+03
 6.056761277E+02, 1.034949951E+03
 6.057579731E+02, 1.053699951E+03
 6.058398164E+02, 1.060000000E+03
 6.059216578E+02, 1.058150024E+03
 6.060034971E+02, 1.054150024E+03
 6.060853344E+02, 1.055800049E+03
 6.061671696E+02, 1.057599976E+03
 6.062490029E+02, 1.044400024E+03
 6.063308341E+02, 1.055099976E+03
 6.064126633E+02, 1.050449951E+03
 6.064944904E+02, 1.064300049E+03
 6.065763156E+02, 1.086849976E+03
 6.066581387E+02, 1.109449951E+03
 6.067399597E+02, 1.144449951E+03
 6.068217788E+02, 1.149550049E+03
 6.069035958E+02, 1.130750000E+03
 6.069854108E+02, 1.135949951E+03
 6.070672237E+02, 1.139349976E+03
 6.071490346E+02, 1.122550049E+03
 6.072308435E+02, 1.091949951E+03
 6.073126504E+02, 1.098500000E+03
 6.073944552E+02, 1.092400024E+03
 6.074762580E+02, 1.109150024E+03
 6.075580587E+02, 1.098800049E+03
 6.076398574E+02, 1.096449951E+03
 6.077216541E+02, 1.097550049E+03
 6.078034487E+02, 1.101050049E+03
 6.078852413E+02, 1.117400024E+03
 6.079670319E+02, 1.134900024E+03
 6.080488204E+02, 1.129199951E+03
 6.081306069E+02, 1.123250000E+03
 6.082123913E+02, 1.115349976E+03
 6.082941737E+02, 1.117199951E+03
 6.083759540E+02, 1.122800049E+03
 6.084577323E+02, 1.137150024E+03
 6.085395086E+02, 1.137500000E+03
 6.086212828E+02, 1.161400024E+03
 6.087030550E+02, 1.160650024E+03
 6.087848251E+02, 1.148349976E+03
 6.088665931E+02, 1.133650024E+03
 6.089483592E+02, 1.141050049E+03
 6.090301232E+02, 1.157900024E+03
 6.091118851E+02, 1.166300049E+03
 6.091936450E+02, 1.161000000E+03
 6.092754028E+02, 1.161599976E+03
 6.093571586E+02, 1.159050049E+03
 6.094389123E+02, 1.152300049E+03
 6.095206640E+02, 1.157199951E+03
 6.096024136E+02, 1.158550049E+03
 6.096841611E+02, 1.147650024E+03
 6.097659066E+02, 1.151400024E+03
 6.098476501E+02, 1.156800049E+03
 6.099293915E+02, 1.160199951E+03
 6.100111308E+02, 1.161099976E+03
 6.100928681E+02, 1.167250000E+03
 6.101746033E+02, 1.175500000E+03
 6.102563365E+02, 1.174550049E+03
 6.103380676E+02, 1.166050049E+03
 6.104197967E+02, 1.166150024E+03
 6.105015236E+02, 1.168050049E+03
 6.105832486E+02, 1.167949951E+03
 6.106649714E+02, 1.178050049E+03
 6.107466922E+02, 1.181699951E+03
 6.108284109E+02, 1.181650024E+03
 6.109101276E+02, 1.180800049E+03
 6.109918422E+02, 1.194000000E+03
 6.110735548E+02, 1.200250000E+03
 6.111552652E+02, 1.201349976E+03
 6.112369736E+02, 1.221699951E+03
 6.113186800E+02, 1.227750000E+03
 6.114003842E+02, 1.226849976E+03
 6.114820864E+02, 1.224099976E+03
 6.115637866E+02, 1.236849976E+03
 6.116454846E+02, 1.268449951E+03
 6.117271806E+02, 1.277599976E+03
 6.118088745E+02, 1.276050049E+03
 6.118905664E+02, 1.278900024E+03
 6.119722561E+02, 1.288900024E+03
 6.120539438E+02, 1.277650024E+03
 6.121356294E+02, 1.270849976E+03
 6.122173130E+02, 1.270550049E+03
 6.122989944E+02, 1.271000000E+03
 6.123806738E+02, 1.277250000E+03
 6.124623511E+02, 1.278199951E+03
 6.125440264E+02, 1.264500000E+03
 6.126256995E+02, 1.259050049E+03
 6.127073706E+02, 1.266849976E+03
 6.127890396E+02, 1.263250000E+03
 6.128707065E+02, 1.272550049E+03
 6.129523713E+02, 1.287849976E+03
 6.130340341E+02, 1.281500000E+03
 6.131156948E+02, 1.292650024E+03
 6.131973533E+02, 1.312150024E+03
 6.132790098E+02, 1.309650024E+03
 6.133606642E+02, 1.293949951E+03
 6.134423166E+02, 1.287400024E+03
 6.135239668E+02, 1.284349976E+03
 6.136056150E+02, 1.289400024E+03
 6.136872610E+02, 1.282800049E+03
 6.137689050E+02, 1.275000000E+03
 6.138505469E+02, 1.260400024E+03
 6.139321867E+02, 1.262250000E+03
 6.140138244E+02, 1.263550049E+03
 6.140954600E+02, 1.268099976E+03
 6.141770935E+02, 1.276400024E+03
 6.142587249E+02, 1.273099976E+03
 6.143403543E+02, 1.289750000E+03
 6.144219815E+02, 1.277900024E+03
 6.145036067E+02, 1.284500000E+03
 6.145852297E+02, 1.293050049E+03
 6.146668507E+02, 1.303900024E+03
 6.147484695E+02, 1.300550049E+03
 6.148300863E+02, 1.317400024E+03
 6.149117009E+02, 1.310500000E+03
 6.149933135E+02, 1.301650024E+03
 6.150749240E+02, 1.290650024E+03
 6.151565323E+02, 1.299449951E+03
 6.152381386E+02, 1.307699951E+03
 6.153197427E+02, 1.315300049E+03
 6.154013448E+02, 1.319550049E+03
 6.154829447E+02, 1.312150024E+03
 6.155645426E+02, 1.317550049E+03
 6.156461383E+02, 1.323250000E+03
 6.157277320E+02, 1.333449951E+03
 6.158093235E+02, 1.344199951E+03
 6.158909129E+02, 1.354250000E+03
 6.159725003E+02, 1.364550049E+03
 6.160540855E+02, 1.382900024E+03
 6.161356686E+02, 1.392099976E+03
 6.162172496E+02, 1.411349976E+03
 6.162988284E+02, 1.423699951E+03
 6.163804052E+02, 1.398449951E+03
 6.164619799E+02, 1.404449951E+03
 6.165435524E+02, 1.420699951E+03
 6.166251229E+02, 1.434599976E+03
 6.167066912E+02, 1.442300049E+03
 6.167882574E+02, 1.449550049E+03
 6.168698215E+02, 1.470199951E+03
 6.169513834E+02, 1.489650024E+03
 6.170329433E+02, 1.482250000E+03
 6.171145011E+02, 1.479550049E+03
 6.171960567E+02, 1.472150024E+03
 6.172776102E+02, 1.499500000E+03
 6.173591616E+02, 1.529099976E+03
 6.174407108E+02, 1.539050049E+03
 6.175222580E+02, 1.543150024E+03
 6.176038030E+02, 1.544949951E+03
 6.176853459E+02, 1.533750000E+03
 6.177668867E+02, 1.555000000E+03
 6.178484254E+02, 1.564699951E+03
 6.179299619E+02, 1.573750000E+03
 6.180114963E+02, 1.573099976E+03
 6.180930286E+02, 1.582050049E+03
 6.181745587E+02, 1.576599976E+03
 6.182560868E+02, 1.594650024E+03
 6.183376127E+02, 1.595400024E+03
 6.184191365E+02, 1.579250000E+03
 6.185006581E+02, 1.554599976E+03
 6.185821776E+02, 1.549849976E+03
 6.186636950E+02, 1.543449951E+03
 6.187452103E+02, 1.536849976E+03
 6.188267234E+02, 1.517099976E+03
 6.189082344E+02, 1.492349976E+03
 6.189897433E+02, 1.489650024E+03
 6.190712500E+02, 1.500550049E+03
 6.191527546E+02, 1.511900024E+03
 6.192342570E+02, 1.503949951E+03
 6.193157574E+02, 1.499750000E+03
 6.193972556E+02, 1.493900024E+03
 6.194787516E+02, 1.530599976E+03
 6.195602455E+02, 1.523449951E+03
 6.196417373E+02, 1.505849976E+03
 6.197232269E+02, 1.498150024E+03
 6.198047144E+02, 1.505800049E+03
 6.198861998E+02, 1.525199951E+03
 6.199676830E+02, 1.505150024E+03
 6.200491641E+02, 1.472099976E+03
 6.201306430E+02, 1.478349976E+03
 6.202121198E+02, 1.492449951E+03
 6.202935944E+02, 1.498099976E+03
 6.203750669E+02, 1.509400024E+03
 6.204565373E+02, 1.507599976E+03
 6.205380055E+02, 1.507300049E+03
 6.206194715E+02, 1.499250000E+03
 6.207009355E+02, 1.499400024E+03
 6.207823972E+02, 1.503750000E+03
 6.208638568E+02, 1.492150024E+03
 6.209453143E+02, 1.480250000E+03
 6.210267696E+02, 1.497400024E+03
 6.211082228E+02, 1.534150024E+03
 6.211896738E+02, 1.520250000E+03
 6.212711227E+02, 1.486750000E+03
 6.213525694E+02, 1.468650024E+03
 6.214340139E+02, 1.483599976E+03
 6.215154563E+02, 1.484050049E+03
 6.215968966E+02, 1.500849976E+03
 6.216783347E+02, 1.512599976E+03
 6.217597706E+02, 1.505250000E+03
 6.218412044E+02, 1.492150024E+03
 6.219226360E+02, 1.513849976E+03
 6.220040655E+02, 1.516400024E+03
 6.220854928E+02, 1.495000000E+03
 6.221669179E+02, 1.503750000E+03
 6.222483409E+02, 1.513949951E+03
 6.223297618E+02, 1.525250000E+03
 6.224111804E+02, 1.531949951E+03
 6.224925969E+02, 1.547550049E+03
 6.225740113E+02, 1.561949951E+03
 6.226554234E+02, 1.556050049E+03
 6.227368334E+02, 1.540449951E+03
 6.228182413E+02, 1.551800049E+03
 6.228996470E+02, 1.568800049E+03
 6.229810505E+02, 1.549449951E+03
 6.230624518E+02, 1.531900024E+03
 6.231438510E+02, 1.526500000E+03
 6.232252480E+02, 1.507849976E+03
 6.233066429E+02, 1.508599976E+03
 6.233880355E+02, 1.505900024E+03
 6.234694260E+02, 1.482199951E+03
 6.235508143E+02, 1.483199951E+03
 6.236322005E+02, 1.486599976E+03
 6.237135845E+02, 1.485449951E+03
 6.237949663E+02, 1.524349976E+03
 6.238763459E+02, 1.517699951E+03
 6.239577234E+02, 1.495650024E+03
 6.240390987E+02, 1.461800049E+03
 6.241204718E+02, 1.456750000E+03
 6.242018427E+02, 1.487849976E+03
 6.242832115E+02, 1.491800049E+03
 6.243645781E+02, 1.492500000E+03
 6.244459425E+02, 1.557050049E+03
 6.245273047E+02, 1.606400024E+03
 6.246086647E+02, 1.600300049E+03
 6.246900226E+02, 1.606250000E+03
 6.247713783E+02, 1.611449951E+03
 6.248527318E+02, 1.599599976E+03
 6.249340831E+02, 1.577400024E+03
 6.250154322E+02, 1.562500000E+03
 6.250967791E+02, 1.562949951E+03
 6.251781239E+02, 1.521400024E+03
 6.252594665E+02, 1.529449951E+03
 6.253408069E+02, 1.541349976E+03
 6.254221451E+02, 1.547800049E+03
 6.255034811E+02, 1.541550049E+03
 6.255848149E+02, 1.537750000E+03
 6.256661466E+02, 1.536500000E+03
 6.257474760E+02, 1.541599976E+03
 6.258288033E+02, 1.561500000E+03
 6.259101283E+02, 1.602599976E+03
 6.259914512E+02, 1.608650024E+03
 6.260727719E+02, 1.650050049E+03
 6.261540904E+02, 1.670750000E+03
 6.262354067E+02, 1.668400024E+03
 6.263167208E+02, 1.695500000E+03
 6.263980327E+02, 1.725699951E+03
 6.264793424E+02, 1.755849976E+03
 6.265606499E+02, 1.818800049E+03
 6.266419552E+02, 1.911599976E+03
 6.267232583E+02, 2.051000000E+03
 6.268045592E+02, 2.239449951E+03
 6.268858580E+02, 2.453250000E+03
 6.269671545E+02, 2.758350098E+03
 6.270484488E+02, 3.224300049E+03
 6.271297409E+02, 3.777050049E+03
 6.272110308E+02, 4.367250000E+03
 6.272923186E+02, 4.878899902E+03
 6.273736041E+02, 5.259899902E+03
 6.274548874E+02, 5.423049805E+03
 6.275361685E+02, 5.415149902E+03
 6.276174474E+02, 5.369799805E+03
 6.276987241E+02, 5.180899902E+03
 6.277799985E+02, 4.856899902E+03
 6.278612708E+02, 4.622100098E+03
 6.279425409E+02, 4.511149902E+03
 6.280238088E+02, 4.307350098E+03
 6.281050744E+02, 4.044649902E+03
 6.281863378E+02, 3.910449951E+03
 6.282675991E+02, 4.098000000E+03
 6.283488581E+02, 4.293950195E+03
 6.284301149E+02, 4.360850098E+03
 6.285113695E+02, 4.467850098E+03
 6.285926219E+02, 4.650350098E+03
 6.286738720E+02, 5.003299805E+03
 6.287551200E+02, 5.391899902E+03
 6.288363657E+02, 5.669750000E+03
 6.289176092E+02, 5.987500000E+03
 6.289988505E+02, 6.397350098E+03
 6.290800896E+02, 6.923350098E+03
 6.291613265E+02, 7.472000000E+03
 6.292425611E+02, 7.909450195E+03
 6.293237936E+02, 8.283900391E+03
 6.294050238E+02, 8.585849609E+03
 6.294862518E+02, 8.935349609E+03
 6.295674775E+02, 8.975750000E+03
 6.296487011E+02, 8.774500000E+03
 6.297299224E+02, 8.594900391E+03
 6.298111415E+02, 8.458900391E+03
 6.298923584E+02, 8.404799805E+03
 6.299735730E+02, 8.222200195E+03
 6.300547854E+02, 7.909149902E+03
 6.301359956E+02, 7.470700195E+03
 6.302172036E+02, 7.172750000E+03
 6.302984093E+02, 7.027450195E+03
 6.303796128E+02, 6.784799805E+03
 6.304608141E+02, 6.484000000E+03
 6.305420132E+02, 6.199450195E+03
 6.306232100E+02, 5.832649902E+03
 6.307044046E+02, 5.647299805E+03
 6.307855969E+02, 5.517899902E+03
 6.308667871E+02, 5.350600098E+03
 6.309479750E+02, 5.074100098E+03
 6.310291606E+02, 4.696950195E+03
 6.311103440E+02, 4.395700195E+03
 6.311915252E+02, 4.135450195E+03
 6.312727042E+02, 3.788699951E+03
 6.313538809E+02, 3.509899902E+03
 6.314350554E+02, 3.411800049E+03
 6.315162276E+02, 3.326750000E+03
 6.315973976E+02, 3.200800049E+03
 6.316785654E+02, 3.098699951E+03
 6.317597309E+02, 3.021149902E+03
 6.318408942E+02, 2.954300049E+03
 6.319220552E+02, 2.935100098E+03
 6.320032140E+02, 2.939350098E+03
 6.320843706E+02, 2.985100098E+03
 6.321655249E+02, 3.070199951E+03
 6.322466770E+02, 3.239300049E+03
 6.323278268E+02, 3.505750000E+03
 6.324089744E+02, 3.759699951E+03
 6.324901197E+02, 3.793350098E+03
 6.325712628E+02, 3.598000000E+03
 6.326524036E+02, 3.339500000E+03
 6.327335422E+02, 3.083550049E+03
 6.328146786E+02, 2.840000000E+03
 6.328958127E+02, 2.677899902E+03
 6.329769445E+02, 2.610949951E+03
 6.330580741E+02, 2.654949951E+03
 6.331392015E+02, 2.780149902E+03
 6.332203265E+02, 3.022800049E+03
 6.333014494E+02, 3.349300049E+03
 6.333825700E+02, 3.676949951E+03
 6.334636883E+02, 3.870300049E+03
 6.335448044E+02, 3.727600098E+03
 6.336259182E+02, 3.401399902E+03
 6.337070297E+02, 3.082500000E+03
 6.337881390E+02, 2.848550049E+03
 6.338692461E+02, 2.805800049E+03
 6.339503509E+02, 2.833500000E+03
 6.340314534E+02, 2.933149902E+03
 6.341125537E+02, 3.201050049E+03
 6.341936517E+02, 3.577350098E+03
 6.342747474E+02, 4.106350098E+03
 6.343558409E+02, 4.683049805E+03
 6.344369322E+02, 5.420200195E+03
 6.345180211E+02, 6.289950195E+03
 6.345991078E+02, 7.092799805E+03
 6.346801922E+02, 7.728350098E+03
 6.347612744E+02, 8.390349609E+03
 6.348423543E+02, 9.101700195E+03
 6.349234320E+02, 9.589799805E+03
 6.350045073E+02, 9.790549805E+03
 6.350855804E+02, 1.034850000E+04
 6.351666513E+02, 1.173350000E+04
 6.352477198E+02, 1.386829980E+04
 6.353287861E+02, 1.614790039E+04
 6.354098501E+02, 1.770340039E+04
 6.354909119E+02, 1.917115039E+04
 6.355719714E+02, 1.996765039E+04
 6.356530286E+02, 2.033484961E+04
 6.357340835E+02, 2.000500000E+04
 6.358151362E+02, 1.896275000E+04
 6.358961866E+02, 1.755240039E+04
 6.359772347E+02, 1.623115039E+04
 6.360582805E+02, 1.464775000E+04
 6.361393241E+02, 1.249879980E+04
 6.362203654E+02, 1.039959961E+04
 6.363014044E+02, 8.790750000E+03
 6.363824411E+02, 7.394649902E+03
 6.364634756E+02, 6.207450195E+03
 6.365445077E+02, 5.407299805E+03
 6.366255376E+02, 4.864350098E+03
 6.367065652E+02, 4.430850098E+03
 6.367875905E+02, 4.075949951E+03
 6.368686136E+02, 3.703199951E+03
 6.369496344E+02, 3.434199951E+03
 6.370306528E+02, 3.186350098E+03
 6.371116690E+02, 2.973149902E+03
 6.371926829E+02, 2.825750000E+03
 6.372736945E+02, 2.733500000E+03
 6.373547039E+02, 2.674100098E+03
 6.374357109E+02, 2.604699951E+03
 6.375167157E+02, 2.521100098E+03
 6.375977182E+02, 2.443149902E+03
 6.376787183E+02, 2.432699951E+03
 6.377597162E+02, 2.438300049E+03
 6.378407118E+02, 2.361149902E+03
 6.379217051E+02, 2.276250000E+03
 6.380026961E+02, 2.213449951E+03
 6.380836849E+02, 2.088300049E+03
 6.381646713E+02, 2.025750000E+03
 6.382456554E+02, 2.012150024E+03
 6.383266373E+02, 1.988849976E+03
 6.384076168E+02, 1.956599976E+03
 6.384885941E+02, 1.946400024E+03
 6.385695690E+02, 1.914550049E+03
 6.386505417E+02, 1.882300049E+03
 6.387315120E+02, 1.868650024E+03
 6.388124801E+02, 1.887650024E+03
 6.388934459E+02, 1.899949951E+03
 6.389744093E+02, 1.877650024E+03
 6.390553705E+02, 1.858150024E+03
 6.391363294E+02, 1.844500000E+03
 6.392172859E+02, 1.855199951E+03
 6.392982402E+02, 1.871000000E+03
 6.393791921E+02, 1.915750000E+03
 6.394601418E+02, 1.939800049E+03
 6.395410891E+02, 1.945449951E+03
 6.396220341E+02, 1.986849976E+03
 6.397029769E+02, 2.075500000E+03
 6.397839173E+02, 2.197399902E+03
 6.398648554E+02, 2.276000000E+03
 6.399457912E+02, 2.346449951E+03
 6.400267247E+02, 2.383699951E+03
 6.401076559E+02, 2.306899902E+03
 6.401885848E+02, 2.179800049E+03
 6.402695114E+02, 2.103250000E+03
 6.403504356E+02, 2.016699951E+03
 6.404313576E+02, 1.904949951E+03
 6.405122772E+02, 1.860699951E+03
 6.405931945E+02, 1.857800049E+03
 6.406741095E+02, 1.861050049E+03
 6.407550222E+02, 1.833449951E+03
 6.408359326E+02, 1.831199951E+03
 6.409168406E+02, 1.857750000E+03
 6.409977464E+02, 1.877449951E+03
 6.410786498E+02, 1.931199951E+03
 6.411595509E+02, 1.980150024E+03
 6.412404497E+02, 2.048199951E+03
 6.413213462E+02, 2.116500000E+03
 6.414022403E+02, 2.168199951E+03
 6.414831322E+02, 2.232350098E+03
 6.415640217E+02, 2.251449951E+03
 6.416449088E+02, 2.201600098E+03
 6.417257937E+02, 2.170550049E+03
 6.418066762E+02, 2.112649902E+03
 6.418875565E+02, 2.003900024E+03
 6.419684343E+02, 1.912050049E+03
 6.420493099E+02, 1.855849976E+03
 6.421301831E+02, 1.854550049E+03
 6.422110541E+02, 1.810900024E+03
 6.422919226E+02, 1.762250000E+03
 6.423727889E+02, 1.734949951E+03
 6.424536528E+02, 1.736849976E+03
 6.425345144E+02, 1.720699951E+03
 6.426153737E+02, 1.696199951E+03
 6.426962306E+02, 1.703300049E+03
 6.427770852E+02, 1.725099976E+03
 6.428579375E+02, 1.720900024E+03
 6.429387874E+02, 1.692349976E+03
 6.430196350E+02, 1.698800049E+03
 6.431004803E+02, 1.696849976E+03
 6.431813232E+02, 1.711099976E+03
 6.432621639E+02, 1.713000000E+03
 6.433430021E+02, 1.675000000E+03
 6.434238380E+02, 1.700300049E+03
 6.435046716E+02, 1.700500000E+03
 6.435855029E+02, 1.677199951E+03
 6.436663318E+02, 1.693150024E+03
 6.437471584E+02, 1.688750000E+03
 6.438279826E+02, 1.668250000E+03
 6.439088045E+02, 1.681849976E+03
 6.439896241E+02, 1.675699951E+03
 6.440704413E+02, 1.686400024E+03
 6.441512561E+02, 1.709650024E+03
 6.442320686E+02, 1.709250000E+03
 6.443128788E+02, 1.713800049E+03
 6.443936867E+02, 1.710000000E+03
 6.444744922E+02, 1.700300049E+03
 6.445552953E+02, 1.691800049E+03
 6.446360961E+02, 1.696150024E+03
 6.447168945E+02, 1.713550049E+03
 6.447976906E+02, 1.710400024E+03
 6.448784844E+02, 1.701250000E+03
 6.449592758E+02, 1.695550049E+03
 6.450400648E+02, 1.696099976E+03
 6.451208515E+02, 1.692800049E+03
 6.452016359E+02, 1.699449951E+03
 6.452824179E+02, 1.714750000E+03
 6.453631975E+02, 1.714550049E+03
 6.454439748E+02, 1.728650024E+03
 6.455247498E+02, 1.738699951E+03
 6.456055223E+02, 1.741099976E+03
 6.456862926E+02, 1.729949951E+03
 6.457670604E+02, 1.727949951E+03
 6.458478259E+02, 1.715000000E+03
 6.459285891E+02, 1.723250000E+03
 6.460093499E+02, 1.716099976E+03
 6.460901083E+02, 1.700500000E+03
 6.461708644E+02, 1.697699951E+03
 6.462516181E+02, 1.711650024E+03
 6.463323695E+02, 1.712849976E+03
 6.464131185E+02, 1.713300049E+03
 6.464938651E+02, 1.688400024E+03
 6.465746094E+02, 1.679400024E+03
 6.466553513E+02, 1.711650024E+03
 6.467360908E+02, 1.727699951E+03
 6.468168280E+02, 1.709349976E+03
 6.468975628E+02, 1.705300049E+03
 6.469782953E+02, 1.690199951E+03
 6.470590253E+02, 1.686349976E+03
 6.471397531E+02, 1.700050049E+03
 6.472204784E+02, 1.735050049E+03
 6.473012014E+02, 1.718800049E+03
 6.473819220E+02, 1.707750000E+03
 6.474626402E+02, 1.700900024E+03
 6.475433561E+02, 1.721849976E+03
 6.476240696E+02, 1.738150024E+03
 6.477047807E+02, 1.709550049E+03
 6.477854894E+02, 1.720699951E+03
 6.478661958E+02, 1.740099976E+03
 6.479468998E+02, 1.715150024E+03
 6.480276014E+02, 1.694800049E+03
 6.481083007E+02, 1.718699951E+03
 6.481889976E+02, 1.701000000E+03
 6.482696921E+02, 1.704199951E+03
 6.483503842E+02, 1.725400024E+03
 6.484310739E+02, 1.747650024E+03
 6.485117613E+02, 1.739300049E+03
 6.485924463E+02, 1.749500000E+03
 6.486731289E+02, 1.754199951E+03
 6.487538091E+02, 1.731000000E+03
 6.488344869E+02, 1.735500000E+03
 6.489151624E+02, 1.734400024E+03
 6.489958355E+02, 1.738250000E+03
 6.490765062E+02, 1.730400024E+03
 6.491571745E+02, 1.753849976E+03
 6.492378404E+02, 1.771900024E+03
 6.493185039E+02, 1.741800049E+03
 6.493991651E+02, 1.684099976E+03
 6.494798239E+02, 1.702949951E+03
 6.495604802E+02, 1.740199951E+03
 6.496411342E+02, 1.756900024E+03
 6.497217858E+02, 1.727599976E+03
 6.498024350E+02, 1.709400024E+03
 6.498830819E+02, 1.713699951E+03
 6.499637263E+02, 1.750750000E+03
 6.500443683E+02, 1.767300049E+03
 6.501250080E+02, 1.767800049E+03
 6.502056452E+02, 1.756500000E+03
 6.502862801E+02, 1.755449951E+03
 6.503669126E+02, 1.750099976E+03
 6.504475426E+02, 1.758750000E+03
 6.505281703E+02, 1.766699951E+03
 6.506087956E+02, 1.777000000E+03
 6.506894185E+02, 1.733699951E+03
 6.507700390E+02, 1.763199951E+03
 6.508506571E+02, 1.765199951E+03
 6.509312727E+02, 1.770050049E+03
 6.510118860E+02, 1.802500000E+03
 6.510924969E+02, 1.781000000E+03
 6.511731054E+02, 1.769449951E+03
 6.512537115E+02, 1.748000000E+03
 6.513343152E+02, 1.772349976E+03
 6.514149165E+02, 1.792349976E+03
 6.514955154E+02, 1.804949951E+03
 6.515761118E+02, 1.793199951E+03
 6.516567059E+02, 1.785849976E+03
 6.517372976E+02, 1.807949951E+03
 6.518178868E+02, 1.816050049E+03
 6.518984737E+02, 1.784300049E+03
 6.519790581E+02, 1.749300049E+03
 6.520596402E+02, 1.780050049E+03
 6.521402198E+02, 1.800449951E+03
 6.522207970E+02, 1.793099976E+03
 6.523013719E+02, 1.794650024E+03
 6.523819443E+02, 1.819099976E+03
 6.524625142E+02, 1.818449951E+03
 6.525430818E+02, 1.782849976E+03
 6.526236470E+02, 1.757949951E+03
 6.527042097E+02, 1.758500000E+03
 6.527847701E+02, 1.777300049E+03
 6.528653280E+02, 1.788900024E+03
 6.529458835E+02, 1.800099976E+03
 6.530264366E+02, 1.788650024E+03
 6.531069873E+02, 1.807900024E+03
 6.531875355E+02, 1.799949951E+03
 6.532680814E+02, 1.784800049E+03
 6.533486248E+02, 1.794250000E+03
 6.534291658E+02, 1.808349976E+03
 6.535097044E+02, 1.798949951E+03
 6.535902406E+02, 1.787349976E+03
 6.536707743E+02, 1.768500000E+03
 6.537513056E+02, 1.781500000E+03
 6.538318345E+02, 1.805500000E+03
 6.539123610E+02, 1.802800049E+03
 6.539928851E+02, 1.785199951E+03
 6.540734067E+02, 1.785250000E+03
 6.541539259E+02, 1.815849976E+03
 6.542344427E+02, 1.828300049E+03
 6.543149570E+02, 1.811599976E+03
 6.543954689E+02, 1.787050049E+03
 6.544759784E+02, 1.754099976E+03
 6.545564855E+02, 1.786250000E+03
 6.546369901E+02, 1.825050049E+03
 6.547174923E+02, 1.808949951E+03
 6.547979921E+02, 1.798300049E+03
 6.548784895E+02, 1.804500000E+03
 6.549589844E+02, 1.815650024E+03
 6.550394769E+02, 1.794849976E+03
 6.551199669E+02, 1.798349976E+03
 6.552004545E+02, 1.821599976E+03
 6.552809397E+02, 1.831199951E+03
 6.553614225E+02, 1.808699951E+03
 6.554419028E+02, 1.801800049E+03
 6.555223806E+02, 1.822150024E+03
 6.556028561E+02, 1.837650024E+03
 6.556833291E+02, 1.827000000E+03
 6.557637996E+02, 1.840800049E+03
 6.558442678E+02, 1.840599976E+03
 6.559247335E+02, 1.807349976E+03
 6.560051967E+02, 1.781800049E+03
 6.560856575E+02, 1.791599976E+03
 6.561661159E+02, 1.807300049E+03
 6.562465718E+02, 1.806900024E+03
 6.563270253E+02, 1.806550049E+03
 6.564074763E+02, 1.796099976E+03
 6.564879249E+02, 1.792050049E+03
 6.565683710E+02, 1.800900024E+03
 6.566488147E+02, 1.808400024E+03
 6.567292560E+02, 1.805449951E+03
 6.568096948E+02, 1.837250000E+03
 6.568901311E+02, 1.803699951E+03
 6.569705651E+02, 1.813349976E+03
 6.570509965E+02, 1.835349976E+03
 6.571314255E+02, 1.817099976E+03
 6.572118521E+02, 1.810000000E+03
 6.572922762E+02, 1.836449951E+03
 6.573726979E+02, 1.857699951E+03
 6.574531171E+02, 1.853349976E+03
 6.575335338E+02, 1.853699951E+03
 6.576139481E+02, 1.881199951E+03
 6.576943600E+02, 1.845400024E+03
 6.577747694E+02, 1.834849976E+03
 6.578551763E+02, 1.822349976E+03
 6.579355808E+02, 1.824800049E+03
 6.580159828E+02, 1.832250000E+03
 6.580963824E+02, 1.836550049E+03
 6.581767795E+02, 1.854300049E+03
 6.582571741E+02, 1.879750000E+03
 6.583375663E+02, 1.866500000E+03
 6.584179561E+02, 1.874650024E+03
 6.584983433E+02, 1.859699951E+03
 6.585787281E+02, 1.875000000E+03
 6.586591105E+02, 1.851900024E+03
 6.587394904E+02, 1.844300049E+03
 6.588198678E+02, 1.834900024E+03
 6.589002428E+02, 1.848900024E+03
 6.589806153E+02, 1.819150024E+03
 6.590609853E+02, 1.844000000E+03
 6.591413529E+02, 1.866500000E+03
 6.592217180E+02, 1.856199951E+03
 6.593020806E+02, 1.828750000E+03
 6.593824407E+02, 1.819199951E+03
 6.594627984E+02, 1.826849976E+03
 6.595431537E+02, 1.803150024E+03
 6.596235064E+02, 1.810349976E+03
 6.597038567E+02, 1.813199951E+03
 6.597842045E+02, 1.812650024E+03
 6.598645499E+02, 1.825849976E+03
 6.599448927E+02, 1.839550049E+03
 6.600252331E+02, 1.839599976E+03
 6.601055711E+02, 1.835699951E+03
 6.601859065E+02, 1.852349976E+03
 6.602662395E+02, 1.869349976E+03
 6.603465700E+02, 1.869000000E+03
 6.604268980E+02, 1.838900024E+03
 6.605072236E+02, 1.844150024E+03
 6.605875466E+02, 1.858199951E+03
 6.606678672E+02, 1.890949951E+03
 6.607481853E+02, 1.865000000E+03
 6.608285010E+02, 1.850750000E+03
 6.609088141E+02, 1.866750000E+03
 6.609891248E+02, 1.888800049E+03
 6.610694330E+02, 1.914500000E+03
 6.611497387E+02, 1.905300049E+03
 6.612300419E+02, 1.873449951E+03
 6.613103426E+02, 1.860849976E+03
 6.613906409E+02, 1.890699951E+03
 6.614709367E+02, 1.916849976E+03
 6.615512300E+02, 1.880449951E+03
 6.616315208E+02, 1.838849976E+03
 6.617118091E+02, 1.875000000E+03
 6.617920949E+02, 1.889349976E+03
 6.618723782E+02, 1.905199951E+03
